Name=SiO2Carl_Flake 7
X=Raman shift, 1/cm
Y=Intensity, Counts
97.444252; 309
97.967125; 310
98.489967; 317
99.014915; 320
99.539841; 315
100.06473; 302
100.58958; 315
101.11228; 337
101.63708; 326
102.16186; 325
102.68446; 324
103.20705; 328
103.73173; 314
104.25639; 323
104.78101; 316
105.3056; 320
105.82804; 329
106.35258; 313
106.87708; 309
107.39943; 339
107.92175; 328
108.44616; 351
108.97055; 330
109.49278; 342
110.01711; 325
110.54141; 339
111.06568; 354
111.5878; 346
112.10988; 360
112.63406; 343
113.15609; 343
113.68021; 351
114.20431; 378
114.72624; 364
115.25028; 346
115.77429; 378
116.29613; 379
116.81796; 360
117.34187; 388
117.86364; 361
118.3875; 393
118.91133; 387
119.43301; 371
119.95678; 420
120.48052; 458
121.00211; 407
121.52366; 438
122.04519; 432
122.56882; 470
123.09241; 451
123.61385; 526
124.13739; 472
124.6609; 482
125.18225; 525
125.7057; 582
126.227; 535
126.74826; 520
127.2695; 450
127.79283; 555
128.31613; 603
128.83728; 574
129.36053; 622
129.88162; 629
130.4048; 655
130.92584; 638
131.44897; 733
131.96994; 699
132.49089; 767
133.0118; 767
133.53481; 764
134.0578; 803
134.57863; 810
135.10155; 810
135.62231; 783
136.14519; 834
136.66589; 824
137.18657; 831
137.70723; 821
138.22998; 887
138.75056; 857
139.27113; 881
139.79379; 1016
140.3143; 998
140.8369; 1010
141.35736; 1104
141.8799; 1129
142.40028; 1083
142.92065; 1107
143.44098; 1161
143.96341; 1051
144.48369; 1201
145.00394; 1258
145.52628; 1230
146.04646; 1283
146.56874; 1342
147.08887; 1428
147.60898; 1240
148.13116; 1436
148.64909; 1485
149.17122; 1245
149.69121; 1284
150.21117; 1363
150.73322; 1296
151.25311; 1305
151.7751; 1281
152.29494; 1359
152.81474; 1356
153.33665; 1293
153.8564; 1222
154.37613; 1240
154.89581; 1294
155.41548; 1205
155.93512; 1380
156.45685; 1296
156.97643; 1393
157.49597; 1338
158.01761; 1410
158.53711; 1432
159.05656; 1365
159.57813; 1376
160.09752; 1267
160.6169; 1400
161.13625; 1418
161.65556; 1558
162.17485; 1450
162.69411; 1459
163.21547; 1664
163.73466; 1482
164.25383; 1506
164.77298; 1691
165.29422; 1565
165.81329; 1926
166.33235; 1870
166.85138; 2011
167.37038; 1747
167.88936; 2160
168.40829; 2320
168.9272; 2101
169.44821; 2252
169.96706; 2229
170.48589; 2536
171.00468; 2519
171.52345; 2570
172.04431; 2586
172.56302; 2784
173.0817; 3049
173.60034; 3067
174.11685; 3070
174.63756; 2863
175.15613; 3078
175.67467; 2918
176.19318; 2823
176.71165; 2847
177.2301; 2932
177.75064; 2868
178.26903; 2399
178.78738; 2344
179.30573; 2206
179.82404; 2123
180.3423; 2028
180.86055; 1994
181.37877; 2035
181.89696; 1962
182.41512; 1764
182.93326; 1735
183.45135; 1815
183.96944; 1893
184.48747; 1729
185.00549; 1704
185.52348; 1745
186.04144; 1692
186.56148; 1671
187.07939; 1786
187.59726; 1714
188.1151; 1657
188.6308; 1793
189.14859; 1765
189.66635; 1902
190.18408; 2030
190.70177; 2009
191.21945; 2098
191.73709; 2137
192.2547; 2094
192.77228; 1872
193.28984; 1779
193.80737; 1699
194.32486; 1623
194.84233; 1598
195.35977; 1601
195.87718; 1704
196.39456; 1558
196.90981; 1594
197.42714; 1557
197.94443; 1618
198.4617; 1507
198.97894; 1469
199.49615; 1561
200.01334; 1569
200.53049; 1478
201.04761; 1477
201.5647; 1532
202.08177; 1428
202.59882; 1595
203.11581; 1659
203.6328; 1609
204.14975; 1453
204.66667; 1473
205.18146; 1529
205.69621; 1440
206.21304; 1469
206.72986; 1306
207.24664; 1305
207.76338; 1382
208.28011; 1324
208.7968; 1311
209.31346; 1380
209.83011; 1381
210.3446; 1389
210.86118; 1490
211.37773; 1404
211.89426; 1446
212.41074; 1533
212.9272; 1688
213.44363; 1415
213.96005; 1384
214.47432; 1518
214.98856; 1367
215.50488; 1516
216.02116; 1322
216.53743; 1341
217.05367; 1412
217.56776; 1335
218.08394; 1211
218.6001; 1225
219.11621; 1234
219.63229; 1165
220.14626; 1253
220.66229; 1247
221.1783; 1301
221.69427; 1280
222.20811; 1310
222.72403; 1226
223.23993; 1225
223.75578; 1307
224.27162; 1232
224.78532; 1349
225.30109; 1285
225.81474; 1384
226.33046; 1452
226.84404; 1471
227.3597; 1496
227.87534; 1612
228.38884; 1692
228.9044; 1778
229.41995; 1779
229.93547; 1826
230.44887; 1843
230.96432; 1760
231.47975; 1685
231.99306; 1690
232.50844; 1542
233.02377; 1580
233.537; 1584
234.05229; 1641
234.56755; 1534
235.08278; 1427
235.59589; 1316
236.11105; 1428
236.6241; 1449
237.13922; 1308
237.65431; 1216
238.16727; 1327
238.68021; 1328
239.19521; 1384
239.70808; 1262
240.22302; 1315
240.73795; 1206
241.25073; 1229
241.76559; 1370
242.27832; 1215
242.79314; 1246
243.30791; 1240
243.82056; 1167
244.33528; 1145
244.84787; 1140
245.36253; 1221
245.87717; 1106
246.38966; 1203
246.90424; 1191
247.41669; 1213
247.93121; 1117
248.4436; 1130
248.95807; 1258
249.4704; 1148
249.9848; 1102
250.49918; 1290
251.01143; 1222
251.52576; 1173
252.03795; 1220
252.55222; 1246
253.06435; 1236
253.57645; 1285
254.08853; 1258
254.60268; 1309
255.1147; 1243
255.6288; 1158
256.14078; 1296
256.65479; 1283
257.16672; 1320
257.68069; 1195
258.19254; 1258
258.70645; 1151
259.21826; 1335
259.73004; 1237
260.24387; 1188
260.75558; 1437
261.26935; 1293
261.78101; 1313
262.29474; 1285
262.80634; 1416
263.3179; 1410
263.83154; 1262
264.34305; 1345
264.85663; 1310
265.3681; 1222
265.88162; 1293
266.39301; 1371
266.90439; 1222
267.41782; 1221
267.92914; 1360
268.44254; 1227
268.9538; 1180
269.46503; 1197
269.9783; 1420
270.48947; 1239
271.00064; 1301
271.51385; 1210
272.02493; 1245
272.53598; 1232
273.04913; 1213
273.56012; 1248
274.07111; 1216
274.58414; 1317
275.09506; 1263
275.60596; 1232
276.11893; 1380
276.62976; 1334
277.14056; 1323
277.65134; 1354
278.16208; 1349
278.67282; 1355
279.18561; 1340
279.69626; 1323
280.20691; 1359
280.7175; 1404
281.23019; 1251
281.74072; 1372
282.25125; 1325
282.76175; 1246
283.27432; 1342
283.78476; 1383
284.29517; 1423
284.80554; 1483
285.31799; 1479
285.82834; 1437
286.33862; 1449
286.84891; 1566
287.36124; 1509
287.87146; 1561
288.38165; 1580
288.89178; 1481
289.40192; 1614
289.91412; 1582
290.42419; 1469
290.93423; 1701
291.44427; 1803
291.95425; 1865
292.46631; 1900
292.97623; 1990
293.48615; 2159
293.99603; 2479
294.50586; 2320
295.01569; 2609
295.52548; 2741
296.03735; 2845
296.54709; 2772
297.05679; 2680
297.56647; 2199
298.07611; 1966
298.58575; 1757
299.09534; 1720
299.60699; 1489
300.11655; 1522
300.62604; 1440
301.13553; 1541
301.64499; 1696
302.15442; 1647
302.66382; 1461
303.17319; 1486
303.68253; 1591
304.19186; 1644
304.70114; 1707
305.21039; 1572
305.72171; 1676
306.23093; 1680
306.74008; 1751
307.24924; 1821
307.75836; 1710
308.26746; 1800
308.77652; 2008
309.28555; 2010
309.79456; 2033
310.30353; 2155
310.8125; 2189
311.32141; 2113
311.83032; 2026
312.33917; 2138
312.84802; 2208
313.35684; 2288
313.8656; 2409
314.37436; 2476
314.88309; 2465
315.39178; 2761
315.90045; 2930
316.40912; 2969
316.91772; 3216
317.4263; 3217
317.93488; 3494
318.44339; 3717
318.9519; 4053
319.45828; 4222
319.96674; 4414
320.47516; 4896
320.98355; 4785
321.49191; 4586
322.00024; 4758
322.50854; 4881
323.01685; 4554
323.52509; 4462
324.03333; 4316
324.5415; 4212
325.04968; 4314
325.5578; 4340
326.06592; 3938
326.57401; 4081
327.08206; 3982
327.59009; 3781
328.09808; 3609
328.60608; 3596
329.11194; 3603
329.61984; 3525
330.12775; 3429
330.63559; 3340
331.14343; 3446
331.65125; 3518
332.159; 3337
332.66467; 3822
333.17239; 3661
333.68008; 4051
334.18774; 3951
334.6954; 4120
335.20093; 4071
335.7085; 4594
336.21606; 4671
336.72357; 4731
337.23108; 4800
337.73648; 4991
338.2439; 5296
338.75131; 5413
339.2587; 5712
339.76398; 5619
340.27133; 6043
340.77863; 6187
341.28589; 6584
341.79108; 7179
342.29828; 7155
342.80548; 7753
343.31262; 7888
343.81769; 7760
344.3248; 8379
344.83188; 9200
345.33893; 9345
345.84387; 10105
346.35086; 10839
346.85785; 11275
347.3627; 12044
347.86963; 13192
348.3765; 13932
348.88336; 14882
349.3902; 16059
349.897; 17005
350.4017; 17185
350.90845; 16291
351.41516; 16385
351.91977; 15780
352.42642; 15138
352.93307; 14373
353.43759; 14189
353.94418; 14199
354.45071; 13670
354.95517; 13872
355.46167; 13305
355.96814; 11911
356.4725; 11688
356.97891; 10117
357.48322; 8873
357.98959; 6438
358.49591; 5489
359.00012; 4373
359.50641; 3849
360.01059; 3570
360.51678; 2880
361.02298; 2805
361.52707; 2460
362.0332; 2566
362.53723; 2166
363.04333; 2188
363.5473; 2095
364.05331; 2075
364.55933; 1945
365.06528; 1889
365.56915; 1868
366.07507; 1866
366.58096; 1674
367.08475; 1740
367.59058; 1538
368.0943; 1600
368.60007; 1665
369.10373; 1610
369.60947; 1543
370.11307; 1720
370.61874; 1523
371.12231; 1445
371.62793; 1487
372.13141; 1437
372.63696; 1520
373.14044; 1452
373.64386; 1467
374.14932; 1415
374.65271; 1418
375.15811; 1436
375.66144; 1586
376.16678; 1438
376.67212; 1536
377.17743; 1546
377.68063; 1584
378.18381; 1383
378.68903; 1408
379.19214; 1476
379.6973; 1332
380.20038; 1313
380.70547; 1288
381.2085; 1292
381.71149; 1344
382.21652; 1407
382.71945; 1402
383.22235; 1287
383.72729; 1351
384.23013; 1390
384.73502; 1373
385.23782; 1385
385.74057; 1412
386.24539; 1182
386.74811; 1248
387.25284; 1147
387.75757; 1119
388.26019; 1130
388.76279; 1139
389.26743; 1232
389.76999; 1254
390.27249; 1076
390.77707; 1246
391.27951; 1119
391.78195; 1227
392.28644; 1175
392.78882; 1105
393.29117; 1173
393.79349; 1259
394.29785; 1172
394.80011; 1127
395.30237; 1140
395.80664; 1149
396.31091; 1219
396.81305; 1283
397.31519; 1208
397.81937; 1150
398.32144; 1205
398.82349; 1219
399.32553; 1259
399.82959; 1124
400.33154; 1133
400.8335; 1140
401.33539; 1099
401.83728; 1011
402.34122; 1205
402.84305; 1125
403.34485; 1113
403.84662; 1130
404.35043; 1139
404.85422; 1233
405.35593; 1111
405.85757; 1200
406.35922; 1126
406.86084; 1237
407.36243; 1275
407.86603; 1222
408.36758; 1227
408.86908; 1251
409.37054; 1234
409.87201; 1327
410.37341; 1275
410.87686; 1344
411.37823; 1276
411.87958; 1320
412.38293; 1458
412.88425; 1497
413.3855; 1496
413.88672; 1692
414.38791; 1872
414.8891; 1964
415.3923; 2236
415.89343; 2489
416.3945; 2896
416.89557; 2837
417.39661; 3273
417.89761; 3273
418.39862; 3217
418.89957; 2956
419.40048; 2746
419.90344; 2384
420.40433; 2040
420.90518; 1874
421.40601; 1602
421.90677; 1477
422.40753; 1384
422.90829; 1339
423.409; 1207
423.90967; 1247
424.41034; 1281
424.91095; 1127
425.41156; 1059
425.91214; 1114
426.41473; 1081
426.91525; 1029
427.41574; 1033
427.9162; 1089
428.41666; 1018
428.91705; 975
429.41745; 1011
429.91779; 1075
430.41812; 1001
430.91843; 971
431.4187; 1064
431.91895; 1058
432.41916; 1037
432.92142; 1017
433.42157; 972
433.92172; 995
434.42181; 953
434.92191; 940
435.42197; 998
435.922; 991
436.41992; 980
436.91989; 940
437.41986; 1087
437.91977; 1022
438.41965; 1100
438.91953; 1034
439.42142; 997
439.92123; 1038
440.42102; 1108
440.9187; 979
441.41843; 930
441.91815; 998
442.41782; 901
442.91745; 1020
443.41708; 996
443.91461; 949
444.41418; 995
444.91577; 1025
445.41528; 992
445.91476; 902
446.41422; 970
446.91159; 1086
447.41101; 900
447.91037; 1017
448.40973; 955
448.90906; 947
449.40628; 975
449.90555; 1047
450.40479; 1053
450.90607; 872
451.40524; 986
451.90234; 1041
452.40149; 915
452.90057; 1035
453.39966; 972
453.89664; 883
454.39566; 1021
454.89468; 1088
455.39365; 941
455.89258; 960
456.39148; 995
456.89038; 1011
457.38718; 995
457.88602; 1068
458.38483; 988
458.88361; 1080
459.38031; 1006
459.87903; 1040
460.37772; 1066
460.87433; 1037
461.37503; 994
461.87366; 1006
462.37018; 1088
462.86874; 1162
463.36728; 1154
463.86374; 1169
464.36221; 1055
464.86066; 1124
465.35703; 1002
465.85544; 1096
466.35587; 1030
466.85214; 1015
467.35046; 1074
467.84671; 1046
468.34497; 1186
468.8432; 1099
469.33936; 1083
469.83755; 1094
470.33569; 1035
470.83179; 1115
471.33194; 1178
471.82797; 1104
472.32602; 1099
472.82199; 1133
473.31998; 1190
473.81793; 1064
474.31381; 1249
474.81174; 1109
475.30759; 1310
475.80542; 1166
476.30325; 1198
476.80106; 1334
477.29678; 1324
477.79456; 1233
478.29227; 1241
478.7879; 1244
479.28558; 1177
479.78119; 1323
480.27878; 1271
480.77637; 1364
481.27396; 1355
481.76944; 1275
482.26694; 1203
482.76236; 1299
483.25983; 1237
483.75519; 1425
484.25259; 1389
484.74792; 1216
485.24527; 1253
485.74258; 1325
486.23782; 1361
486.73511; 1252
487.23029; 1360
487.72751; 1439
488.22263; 1280
488.71979; 1315
489.21487; 1328
489.71198; 1409
490.20905; 1330
490.70404; 1308
491.20108; 1367
491.69601; 1262
492.19095; 1263
492.6879; 1393
493.18277; 1443
493.6817; 1351
494.17651; 1517
494.6713; 1473
495.16809; 1333
495.66284; 1472
496.15958; 1455
496.65427; 1418
497.14893; 1482
497.6456; 1363
498.14224; 1326
498.63681; 1568
499.13339; 1487
499.62793; 1453
500.12241; 1374
500.61893; 1390
501.11337; 1329
501.60779; 1307
502.10626; 1363
502.60062; 1240
503.09494; 1357
503.58926; 1362
504.08557; 1136
504.57983; 1170
505.07404; 1283
505.57028; 1369
506.0665; 1308
506.56064; 1373
507.05478; 1401
507.5509; 1383
508.04498; 1326
508.539; 1533
509.03302; 1444
509.52905; 1535
510.02505; 1562
510.51898; 1624
511.01288; 1732
511.50882; 1703
512.00269; 1816
512.49646; 1700
512.9903; 1816
513.48608; 1728
513.98187; 1824
514.47559; 2016
514.9693; 2059
515.46295; 2115
515.9566; 2266
516.45227; 2244
516.9458; 2681
517.44141; 2673
517.93494; 2670
518.42847; 3131
518.92194; 3221
519.41742; 3369
519.91083; 3562
520.40424; 3622
520.89764; 3623
521.39301; 3676
521.88635; 3791
522.37964; 3703
522.87494; 3600
523.36816; 3195
523.86139; 3200
524.35455; 3161
524.84973; 3032
525.3429; 2810
525.836; 2616
526.32904; 2455
526.82214; 2360
527.31512; 2236
527.81018; 2255
528.30316; 2118
528.79816; 2056
529.29108; 2066
529.78394; 2101
530.27679; 1770
530.76965; 1897
531.26245; 1862
531.75525; 1734
532.25006; 1670
532.74274; 1696
533.23547; 1635
533.72815; 1601
534.22083; 1600
534.71344; 1492
535.20605; 1571
535.70062; 1514
536.19318; 1565
536.68573; 1434
537.17822; 1529
537.67065; 1403
538.16309; 1492
538.65552; 1492
539.14996; 1444
539.64227; 1408
540.13464; 1474
540.62695; 1394
541.1192; 1375
541.61145; 1283
542.10571; 1450
542.5979; 1320
543.09009; 1373
543.58228; 1339
544.07434; 1328
544.56445; 1223
545.05652; 1260
545.5506; 1311
546.0426; 1230
546.53461; 1255
547.02655; 1278
547.51849; 1162
548.01038; 1109
548.50226; 1199
548.99615; 1178
549.48596; 1160
549.97772; 1190
550.46954; 1129
550.9613; 1136
551.453; 1169
551.94672; 1214
552.43842; 1073
552.92804; 1006
553.41962; 1048
553.91119; 1089
554.40277; 1080
554.89435; 1095
555.38788; 1033
555.87732; 1065
556.36877; 1080
556.86023; 945
557.35162; 1041
557.84302; 1035
558.33435; 879
558.82568; 972
559.31696; 939
559.80823; 953
560.2995; 1047
560.7887; 1008
561.28192; 935
561.77307; 941
562.26422; 956
562.7533; 1010
563.24438; 1001
563.73541; 937
564.2265; 941
564.71747; 977
565.20844; 974
565.6994; 926
566.19037; 1041
566.6792; 1047
567.1701; 969
567.66296; 968
568.15179; 916
568.64258; 975
569.13336; 1017
569.62207; 1058
570.11279; 972
570.60547; 1036
571.09412; 1139
571.58478; 1190
572.07538; 1018
572.56598; 1158
573.0545; 1077
573.54706; 1108
574.03552; 1154
574.526; 1201
575.01648; 1361
575.50488; 1199
575.9953; 1291
576.48767; 1187
576.97601; 1106
577.46631; 1320
577.95459; 1260
578.44489; 1247
578.93512; 1306
579.42529; 1206
579.91553; 1289
580.40363; 1295
580.8938; 1265
581.38391; 1248
581.87396; 1345
582.36401; 1330
582.85205; 1275
583.34204; 1385
583.83002; 1381
584.31995; 1372
584.81189; 1418
585.2998; 1307
585.78967; 1245
586.27747; 1308
586.76727; 1147
587.25507; 1170
587.74689; 1127
588.23456; 1096
588.7243; 1194
589.21198; 1207
589.70166; 1055
590.19128; 948
590.68091; 929
591.16846; 906
591.65802; 955
592.14551; 983
592.63501; 820
593.12451; 1101
593.61395; 961
594.10138; 993
594.59076; 916
595.07813; 1009
595.56744; 912
596.05676; 977
596.54407; 815
597.03333; 914
597.52051; 968
598.00977; 917
598.49896; 901
598.9881; 983
599.47522; 816
599.96234; 867
600.45142; 985
600.94049; 764
601.4295; 872
601.9165; 850
602.40344; 916
602.8924; 846
603.37927; 940
603.86823; 849
604.35706; 823
604.84393; 897
605.3327; 838
605.81952; 923
606.30829; 806
606.797; 851
607.28375; 855
607.77039; 905
608.25903; 840
608.74768; 881
609.23431; 871
609.7229; 886
610.20941; 848
610.69592; 880
611.18445; 928
611.67291; 856
612.15936; 833
612.64575; 885
613.13416; 855
613.62054; 947
614.10889; 977
614.59521; 874
615.0835; 843
615.56976; 884
616.05597; 893
616.54419; 830
617.03241; 909
617.51855; 905
618.0047; 982
618.49078; 877
618.9809; 870
619.46692; 853
619.95294; 852
620.43896; 925
620.92694; 852
621.41492; 930
621.90082; 836
622.38672; 804
622.87256; 937
623.36041; 956
623.84827; 872
624.33405; 853
624.81982; 869
625.30554; 911
625.79126; 879
626.28094; 831
626.7666; 884
627.25226; 823
627.73785; 915
628.22345; 873
628.711; 951
629.19653; 813
629.68402; 853
630.16949; 931
630.65497; 800
631.1424; 831
631.62781; 878
632.11316; 931
632.59851; 834
633.0838; 887
633.57111; 860
634.05841; 909
634.54364; 950
635.02887; 865
635.51404; 883
636.00122; 910
636.48639; 930
636.9715; 858
637.45654; 936
637.94366; 842
638.42865; 905
638.9137; 825
639.39868; 838
639.88361; 854
640.37054; 820
640.85547; 891
641.34033; 982
641.8252; 807
642.31; 906
642.79681; 921
643.28162; 929
643.76636; 953
644.2511; 913
644.73578; 858
645.22247; 877
645.70709; 846
646.19171; 892
646.67633; 843
647.1629; 891
647.64746; 888
648.13196; 861
648.61646; 1214
649.10089; 822
649.58734; 863
650.07178; 937
650.55615; 1001
651.04053; 886
651.52484; 835
652.01117; 855
652.49341; 1029
652.97766; 946
653.46191; 842
653.94812; 840
654.43231; 976
654.91644; 848
655.40057; 838
655.8847; 1015
656.37079; 969
656.85284; 916
657.33685; 865
657.82086; 903
658.30682; 868
658.79077; 865
659.27466; 936
659.75861; 990
660.24042; 882
660.72632; 1016
661.21008; 926
661.69391; 875
662.17767; 895
662.66339; 1054
663.14514; 893
663.62878; 981
664.11249; 962
664.59613; 971
665.08173; 905
665.56329; 923
666.04688; 959
666.5304; 922
667.01593; 979
667.49738; 973
667.98083; 927
668.46429; 1020
668.94971; 991
669.43103; 991
669.91443; 943
670.39771; 1054
670.88104; 928
671.36432; 1066
671.84753; 1038
672.33081; 1012
672.81396; 1007
673.29718; 1135
673.78027; 1034
674.26343; 1045
674.74451; 965
675.22961; 984
675.71265; 1040
676.19568; 991
676.67664; 979
677.15961; 1020
677.64453; 948
678.12549; 1045
678.60834; 958
679.09119; 1141
679.57404; 1109
680.05688; 966
680.53766; 997
681.02039; 1043
681.50513; 943
681.98584; 1085
682.46851; 957
682.95117; 1038
683.43384; 1029
683.91644; 994
684.39703; 1028
684.87958; 980
685.36407; 1063
685.8446; 1056
686.32709; 1061
686.8075; 1209
687.28998; 1049
687.77435; 1056
688.2547; 996
688.73706; 1020
689.21741; 1075
689.70172; 1141
690.18195; 1152
690.66425; 1051
691.14642; 1261
691.62866; 1164
692.11078; 1107
692.59094; 1184
693.07306; 1266
693.55518; 1296
694.03723; 1268
694.51727; 1198
694.99927; 1315
695.48126; 1215
695.96326; 1356
696.44318; 1265
696.92511; 1430
697.40698; 1228
697.88885; 1323
698.36865; 1304
698.85046; 1278
699.33228; 1414
699.81403; 1389
700.29376; 1363
700.7735; 1338
701.25714; 1216
701.73682; 1397
702.21844; 1232
702.69806; 1391
703.18164; 1303
703.66119; 1233
704.14075; 1214
704.62225; 1275
705.1037; 1231
705.58514; 1300
706.06458; 1228
706.54602; 1094
707.02734; 1121
707.50671; 1174
707.98804; 1313
708.46735; 1149
708.94861; 1165
709.42987; 1185
709.90912; 1071
710.39026; 1079
710.87146; 1129
711.35059; 994
711.83173; 1079
712.31085; 1094
712.79187; 1065
713.27295; 1048
713.75195; 1080
714.23297; 1027
714.71393; 1098
715.19287; 1031
715.67181; 1018
716.15265; 886
716.63354; 964
717.11237; 879
717.59119; 925
718.07397; 949
718.55273; 977
719.03149; 910
719.51019; 895
719.99292; 945
720.47156; 883
720.9502; 898
721.43079; 771
721.91138; 926
722.38995; 847
722.86847; 876
723.349; 821
723.82947; 870
724.30792; 937
724.78638; 839
725.26678; 931
725.74719; 805
726.22552; 803
726.70386; 805
727.18414; 910
727.66248; 874
728.1427; 937
728.62097; 920
729.10114; 822
729.57935; 890
730.0575; 775
730.5376; 841
731.0177; 865
731.49579; 840
731.97388; 884
732.45386; 857
732.93188; 779
733.40985; 824
733.88782; 833
734.36975; 855
734.84766; 849
735.3255; 819
735.80334; 880
736.2832; 855
736.76099; 820
737.23877; 1172
737.71851; 852
738.19623; 821
738.67596; 837
739.15363; 883
739.63324; 910
740.1109; 853
740.5885; 887
741.06805; 903
741.54559; 842
742.02313; 923
742.50061; 838
742.9801; 785
743.45752; 931
743.93494; 839
744.41235; 908
744.89172; 881
745.36908; 887
745.84637; 805
746.32568; 840
746.80298; 821
747.28021; 847
747.75745; 794
748.23663; 844
748.71381; 895
749.19092; 874
749.67004; 783
750.14716; 862
750.62421; 860
751.10126; 869
751.58026; 808
752.05725; 846
752.53424; 823
753.01312; 842
753.49005; 794
753.96698; 843
754.44385; 810
754.92267; 886
755.39948; 900
755.87628; 872
756.35504; 871
756.82977; 822
757.30652; 806
757.7832; 802
758.26184; 863
758.73846; 877
759.21509; 913
759.69366; 820
760.17023; 802
760.64679; 891
761.12134; 831
761.59979; 780
762.07623; 857
762.55267; 860
763.03107; 809
763.50751; 918
763.98383; 930
764.45819; 783
764.93652; 796
765.41278; 828
765.88904; 826
766.36725; 860
766.84149; 820
767.31769; 892
767.79584; 812
768.27197; 840
768.74811; 857
769.22217; 985
769.70026; 830
770.17627; 850
770.65228; 894
771.13025; 780
771.60425; 803
772.08014; 835
772.55609; 889
773.03394; 901
773.50781; 786
773.98364; 818
774.46149; 778
774.93726; 767
775.41101; 883
775.88873; 860
776.36444; 851
776.83813; 915
777.3158; 762
777.79144; 736
778.26703; 754
778.74066; 809
779.2182; 760
779.69373; 738
780.16724; 825
780.64471; 803
781.12018; 836
781.59363; 828
782.07104; 782
782.54639; 784
783.01978; 824
783.49512; 768
783.97241; 820
784.44568; 853
784.92096; 780
785.39819; 888
785.8714; 753
786.34662; 787
786.82178; 808
787.29688; 799
787.77197; 872
788.24707; 853
788.72211; 779
789.19519; 785
789.67017; 799
790.14716; 847
790.62012; 770
791.09509; 797
791.56995; 897
792.04486; 840
792.51776; 787
792.99457; 693
793.46936; 793
793.94214; 840
794.41888; 757
794.89166; 816
795.36633; 784
795.84106; 777
796.31567; 753
796.78833; 847
797.26294; 823
797.73755; 776
798.2121; 802
798.68463; 854
799.16113; 836
799.63367; 932
800.10809; 776
800.58252; 874
801.05695; 772
801.52936; 725
802.00568; 856
802.47803; 832
802.95233; 784
803.42664; 802
803.89893; 755
804.37317; 782
804.84735; 822
805.32153; 759
805.7937; 940
806.26782; 888
806.74194; 803
807.21606; 751
807.68811; 814
808.16217; 794
808.63617; 834
809.10815; 841
809.58411; 741
810.05609; 874
810.52802; 828
811.00385; 984
811.47577; 827
811.94757; 924
812.4234; 819
812.8952; 929
813.36896; 874
813.84271; 838
814.31439; 809
814.78809; 878
815.26178; 799
815.7334; 872
816.20703; 845
816.6806; 816
817.15222; 844
817.62378; 830
818.09924; 816
818.57074; 860
819.04224; 772
819.51764; 888
819.98907; 840
820.46051; 764
820.93585; 844
821.40723; 938
821.87854; 890
822.35181; 857
822.82507; 732
823.29633; 859
823.76953; 819
824.24078; 904
824.71393; 770
825.18707; 873
825.6582; 892
826.12933; 862
826.60437; 868
827.07544; 829
827.54645; 913
828.01947; 864
828.49042; 818
828.96338; 848
829.43628; 806
829.90723; 799
830.37811; 845
830.85095; 820
831.32373; 822
831.79456; 807
832.26733; 806
832.7381; 814
833.20886; 919
833.68152; 879
834.15417; 814
834.62488; 822
835.09747; 924
835.56812; 836
836.0387; 824
836.51123; 792
836.98181; 833
837.45233; 867
837.92676; 875
838.39722; 886
838.86768; 854
839.34003; 960
839.81042; 828
840.28082; 876
840.75311; 893
841.22345; 857
841.69379; 914
842.16602; 826
842.63623; 783
843.10846; 810
843.58063; 840
844.05078; 870
844.52094; 924
844.99304; 809
845.46313; 833
845.93518; 832
846.40521; 818
846.87524; 881
847.34723; 814
847.8172; 859
848.28717; 929
848.75909; 879
849.229; 872
849.69885; 801
850.17065; 914
850.6405; 783
851.11029; 938
851.58203; 871
852.05182; 796
852.52155; 861
852.99323; 869
853.46289; 808
853.93256; 848
854.40417; 820
854.87183; 899
855.34338; 884
855.81293; 822
856.28247; 843
856.75391; 816
857.22339; 782
857.69287; 807
858.16431; 783
858.63367; 806
859.10309; 921
859.5744; 873
860.04376; 884
860.51306; 856
860.98236; 820
861.4516; 865
861.92279; 754
862.39203; 873
862.86121; 782
863.33234; 791
863.80151; 818
864.26868; 892
864.73969; 879
865.2088; 896
865.6778; 809
866.1488; 920
866.6178; 843
867.08679; 803
867.55573; 821
868.02466; 816
868.49548; 888
868.96436; 840
869.43127; 862
869.90204; 817
870.37085; 868
870.8396; 961
871.3103; 832
871.7771; 884
872.24774; 882
872.71643; 846
873.18506; 856
873.65369; 871
874.12231; 902
874.59088; 894
875.0614; 891
875.52795; 805
875.99646; 861
876.46692; 902
876.93536; 883
877.40381; 800
877.87219; 818
878.34058; 830
878.80896; 836
879.27728; 794
879.74561; 883
880.21387; 887
880.68213; 918
881.15234; 891
881.61859; 918
882.08673; 849
882.55688; 863
883.02307; 842
883.49115; 838
883.96118; 844
884.42731; 926
884.89734; 845
885.36536; 850
885.83136; 791
886.30127; 895
886.76923; 841
887.23517; 926
887.70502; 845
888.17096; 881
888.64075; 821
889.10858; 855
889.5744; 874
